Time (s),Average dC (atm/m^3)
0.0,0.0
10000.0,6.100103038928917e+22
20000.0,1.167132738911087e+23
30000.0,1.6858685837640165e+23
40000.0,2.1735096190096466e+23
50000.0,2.6346331637760424e+23
60000.0,3.0724561787863396e+23
70000.0,3.489407110501666e+23
80000.0,3.887396369718647e+23
90000.0,4.267990831512247e+23
100000.0,4.632498216196564e+23
110000.0,4.982039745772716e+23
120000.0,5.317590034720324e+23
130000.0,5.640008530394255e+23
140000.0,5.9500586778751254e+23
150000.0,6.248429743227041e+23
160000.0,6.535740741856256e+23
170000.0,6.812567616051962e+23
180000.0,7.079432948543845e+23
190000.0,7.336817583952173e+23
200000.0,7.58517364148134e+23
210000.0,7.824916430309201e+23
220000.0,8.056424491660223e+23
230000.0,8.280085239611224e+23
240000.0,8.496229389870413e+23
250000.0,8.705175206815088e+23
260000.0,8.907240182615134e+23
270000.0,9.102711826617893e+23
280000.0,9.291843086820255e+23
290000.0,9.474901482271517e+23
300000.0,9.652143553735959e+23
310000.0,9.823786052461152e+23
320000.0,9.990051777882982e+23
330000.0,1.0151166418419396e+24
340000.0,1.0307314053639991e+24
350000.0,1.04586880007685e+24
360000.0,1.0605477438374247e+24
370000.0,1.0747850566836673e+24
380000.0,1.0885968386478148e+24
390000.0,1.1019996593366966e+24
400000.0,1.1150084346868972e+24
410000.0,1.127636823477894e+24
420000.0,1.1398992717725907e+24
430000.0,1.1518087320393507e+24
440000.0,1.1633769235584536e+24
450000.0,1.1746181631935584e+24
460000.0,1.1855430515184974e+24
470000.0,1.1961625432939093e+24
480000.0,1.2064856715192061e+24
490000.0,1.2165245529002167e+24
500000.0,1.226288880477631e+24
510000.0,1.235787928671798e+24
520000.0,1.2450295495467157e+24
530000.0,1.2540241187168522e+24
540000.0,1.2627786131385898e+24
550000.0,1.271301112973732e+24
560000.0,1.2795988005058768e+24
570000.0,1.2876804294090756e+24
580000.0,1.2955505150789604e+24
590000.0,1.3032179301529887e+24
600000.0,1.310689161721486e+24
610000.0,1.3179707510110754e+24
620000.0,1.325067616163603e+24
630000.0,1.3319845125981113e+24
640000.0,1.3387296787440867e+24
650000.0,1.3453034895808765e+24
660000.0,1.3517191511846675e+24
670000.0,1.3579759058037063e+24
680000.0,1.3640801607680117e+24
690000.0,1.370036128443436e+24
700000.0,1.3758489754577003e+24
710000.0,1.3815216740654e+24
720000.0,1.3870592477322238e+24
730000.0,1.3924651530704112e+24
740000.0,1.3977437090308688e+24
750000.0,1.40289846580912e+24
760000.0,1.407932753103836e+24
770000.0,1.4128497728862213e+24
780000.0,1.417653137633681e+24
790000.0,1.4223459736625165e+24
800000.0,1.4269299099505748e+24
810000.0,1.431412409319206e+24
820000.0,1.43579298232236e+24
830000.0,1.440072573181645e+24
840000.0,1.444257492064983e+24
850000.0,1.448347814589334e+24
860000.0,1.4523500042468717e+24
870000.0,1.456262393213165e+24
880000.0,1.4600907837520628e+24
890000.0,1.4638348807097701e+24
900000.0,1.467497302805941e+24
910000.0,1.4710785158431347e+24
920000.0,1.4745832593647388e+24
930000.0,1.4780116553693193e+24
940000.0,1.481370274223142e+24
950000.0,1.4846545105531513e+24
960000.0,1.4878718591768665e+24
970000.0,1.4910212165932877e+24
980000.0,1.4940994590977716e+24
990000.0,1.4971184335468124e+24
1000000.0,1.5000734457401843e+24
1010000.0,1.5029675965117678e+24
1020000.0,1.5058020870030266e+24
1030000.0,1.5085772059827682e+24
1040000.0,1.511295859178328e+24
1050000.0,1.5139579836235806e+24
1060000.0,1.516567776003253e+24
1070000.0,1.519124096109266e+24
1080000.0,1.5216278396540574e+24
1090000.0,1.5240808181433032e+24
1100000.0,1.5264846403686648e+24
1110000.0,1.5288424462279265e+24
1120000.0,1.5311527365617084e+24
1130000.0,1.5334169433606267e+24
1140000.0,1.5356368534424443e+24
1150000.0,1.5378107451625147e+24
1160000.0,1.5399420991757376e+24
1170000.0,1.5420341537204883e+24
1180000.0,1.544084398423048e+24
1190000.0,1.5460937415203264e+24
1200000.0,1.548061250265526e+24
1210000.0,1.5499954741245704e+24
1220000.0,1.551891461792588e+24
1230000.0,1.5537523571024547e+24
1240000.0,1.5555775499052342e+24
1250000.0,1.5573662711011067e+24
1260000.0,1.5591219062798283e+24
1270000.0,1.5608442302783648e+24
1280000.0,1.5625345174169923e+24
1290000.0,1.5641918881771793e+24
1300000.0,1.5658187392556435e+24
1310000.0,1.5674133583351648e+24
1320000.0,1.5689783992952223e+24
1330000.0,1.5705131312497547e+24
1340000.0,1.5720209284118632e+24
1350000.0,1.5735022697134467e+24
1360000.0,1.5749553268974978e+24
1370000.0,1.5763805440497257e+24
1380000.0,1.577778129854041e+24
1390000.0,1.5791525954932375e+24
1400000.0,1.5805018346878426e+24
1410000.0,1.5818263391101885e+24
1420000.0,1.5831279916443808e+24
1430000.0,1.5844035024690507e+24
1440000.0,1.5856575257880462e+24
1450000.0,1.586888129062533e+24
1460000.0,1.5880980438038115e+24
1470000.0,1.5892852754213996e+24
1480000.0,1.5904509933205053e+24
1490000.0,1.5915954463777488e+24
1500000.0,1.5927196357149312e+24
1510000.0,1.5938219705611665e+24
1520000.0,1.5949045594335344e+24
1530000.0,1.5959706693765455e+24
1540000.0,1.597016655887341e+24
1550000.0,1.598044518933955e+24
1560000.0,1.5990544627272348e+24
1570000.0,1.6000450387836545e+24
1580000.0,1.601019681264348e+24
1590000.0,1.6019749219878585e+24
1600000.0,1.6029146394391748e+24
1610000.0,1.6038392212135152e+24
1620000.0,1.6047448394341513e+24
1630000.0,1.605633556975488e+24
1640000.0,1.6065118623020862e+24
1650000.0,1.607374160825312e+24
1660000.0,1.608221284281774e+24
1670000.0,1.6090530475995688e+24
1680000.0,1.6098690720672295e+24
1690000.0,1.6106728672627041e+24
1700000.0,1.6114619096498885e+24
1710000.0,1.6122369220227857e+24
1720000.0,1.6129952906141377e+24
1730000.0,1.6137436744832424e+24
1740000.0,1.6144780488731243e+24
1750000.0,1.6152000025827164e+24
1760000.0,1.6159121356241286e+24
1770000.0,1.6166136808886185e+24
1780000.0,1.617301586376586e+24
1790000.0,1.6179779364368332e+24
1800000.0,1.6186424722763182e+24
1810000.0,1.6192922388310217e+24
1820000.0,1.6199352322652996e+24
1830000.0,1.62056694463944e+24
1840000.0,1.6211867440795695e+24
1850000.0,1.6217987160533738e+24
1860000.0,1.6223964222520785e+24
1870000.0,1.6229878370379038e+24
1880000.0,1.623569110341734e+24
1890000.0,1.6241366931709483e+24
1900000.0,1.624699216369266e+24
1910000.0,1.6252500285382262e+24
1920000.0,1.625789744239915e+24
1930000.0,1.6263239585057232e+24
1940000.0,1.6268479227098113e+24
1950000.0,1.627364120223167e+24
1960000.0,1.6278730586281347e+24
1970000.0,1.628372534314874e+24
1980000.0,1.628864218326439e+24
1990000.0,1.6293467598819875e+24
2000000.0,1.6298197823734338e+24
2010000.0,1.6302848529182456e+24
2020000.0,1.6307452734604603e+24
2030000.0,1.631197474893167e+24
2040000.0,1.631642614011555e+24
2050000.0,1.6320802642402496e+24
2060000.0,1.6325089797456572e+24
2070000.0,1.6329326090275565e+24
2080000.0,1.6333476940530686e+24
2090000.0,1.633757602503282e+24
2100000.0,1.6341604869284607e+24
2110000.0,1.6345557687090864e+24
2120000.0,1.6349455163969846e+24
2130000.0,1.6353285701485728e+24
2140000.0,1.6357055495973575e+24
2150000.0,1.6360745711084477e+24
2160000.0,1.6364384302303898e+24
2170000.0,1.6367972616663308e+24
2180000.0,1.6371478086789564e+24
2190000.0,1.637493442361305e+24
2200000.0,1.6378362229533352e+24
2210000.0,1.6381736290645354e+24
2220000.0,1.6385060021391952e+24
2230000.0,1.638829472901006e+24
2240000.0,1.6391473278585292e+24
2250000.0,1.6394640338264764e+24
2260000.0,1.6397737690755566e+24
2270000.0,1.6400797040772325e+24
2280000.0,1.6403791488580426e+24
2290000.0,1.6406758402954829e+24
2300000.0,1.6409668866778015e+24
2310000.0,1.6412525445820916e+24
2320000.0,1.6415313470125768e+24
2330000.0,1.6418084088115403e+24
2340000.0,1.6420784250628247e+24
2350000.0,1.6423494693441877e+24
2360000.0,1.6426148751538941e+24
2370000.0,1.642875635866976e+24
2380000.0,1.643132805634517e+24
2390000.0,1.643385701887487e+24
2400000.0,1.6436342128729833e+24
2410000.0,1.643880913952555e+24
2420000.0,1.6441216953170883e+24
2430000.0,1.6443583096615102e+24
2440000.0,1.6445894522363132e+24
2450000.0,1.644817652914913e+24
2460000.0,1.645043127074142e+24
2470000.0,1.6452661455198057e+24
2480000.0,1.645484842263193e+24
2490000.0,1.645699467329874e+24
2500000.0,1.6459114354490954e+24
2510000.0,1.6461186690089945e+24
2520000.0,1.6463249188639608e+24
2530000.0,1.64652359437754e+24
2540000.0,1.646723497580872e+24
2550000.0,1.646919636180705e+24
2560000.0,1.6471111595076817e+24
2570000.0,1.6473008956336037e+24
2580000.0,1.6474882514660998e+24
2590000.0,1.6476727842757313e+24
2600000.0,1.6478524790932837e+24
2610000.0,1.6480309783559792e+24
2620000.0,1.6482070351831268e+24
2630000.0,1.6483801287217228e+24
2640000.0,1.6485492142748586e+24
2650000.0,1.648716238465672e+24
2660000.0,1.648878757222618e+24
2670000.0,1.6490422988572662e+24
2680000.0,1.6492028648307894e+24
2690000.0,1.6493599047603094e+24
2700000.0,1.649513606370114e+24
2710000.0,1.6496662562145971e+24
2720000.0,1.6498167563686374e+24
2730000.0,1.6499622046776566e+24
2740000.0,1.650108238609829e+24
2750000.0,1.6502520088527556e+24
2760000.0,1.6503908570342837e+24
2770000.0,1.6505309254098867e+24
2780000.0,1.650667559554597e+24
2790000.0,1.6508027654628464e+24
2800000.0,1.6509340439321296e+24
2810000.0,1.6510652658284411e+24
2820000.0,1.6511920840720903e+24
2830000.0,1.6513175064571038e+24
2840000.0,1.651443462781918e+24
2850000.0,1.6515672632864157e+24
2860000.0,1.6516878593324783e+24
2870000.0,1.6518064609265378e+24
2880000.0,1.6519242541604815e+24
2890000.0,1.6520364861705508e+24
2900000.0,1.6521510627868742e+24
2910000.0,1.6522629810998446e+24
2920000.0,1.6523742662390109e+24
2930000.0,1.652484026938043e+24
2940000.0,1.652591542302235e+24
2950000.0,1.6526974123381039e+24
2960000.0,1.6527978880231294e+24
2970000.0,1.6529015578042816e+24
2980000.0,1.6530002252325765e+24
2990000.0,1.65309820568119e+24
3000000.0,1.6531928249968215e+24
3010000.0,1.653290389828697e+24
3020000.0,1.6533852754238768e+24
3030000.0,1.6534798956571296e+24
3040000.0,1.6535718589882543e+24
3050000.0,1.6536605353111987e+24
3060000.0,1.6537507961042378e+24
3070000.0,1.6538397674165967e+24
3080000.0,1.6539226217310265e+24
3090000.0,1.6540080146539182e+24
3100000.0,1.6540904335951306e+24
3110000.0,1.6541741223075853e+24
3120000.0,1.65425365145385e+24
3130000.0,1.654335383886445e+24
3140000.0,1.654414778864209e+24
3150000.0,1.6544938842408235e+24
3160000.0,1.6545699439031967e+24
3170000.0,1.6546464298177722e+24
3180000.0,1.6547218721591825e+24
3190000.0,1.6547946389546877e+24
3200000.0,1.6548658702277328e+24
3210000.0,1.6549374608956711e+24
3220000.0,1.6550072820915842e+24
3230000.0,1.6550772020534002e+24
3240000.0,1.655145045764328e+24
3250000.0,1.6552096130711007e+24
3260000.0,1.655273089932595e+24
3270000.0,1.6553396489354568e+24
3280000.0,1.655403570835536e+24
3290000.0,1.655467752713372e+24
3300000.0,1.6555302388796907e+24
3310000.0,1.6555911469700295e+24
3320000.0,1.6556505847751384e+24
3330000.0,1.6557078061196884e+24
3340000.0,1.6557675836914027e+24
3350000.0,1.6558256796293288e+24
3360000.0,1.6558822431179536e+24
3370000.0,1.6559388449862662e+24
3380000.0,1.6559948454456377e+24
3390000.0,1.6560481787183475e+24
3400000.0,1.6561023241753712e+24
3410000.0,1.6561553502601175e+24
3420000.0,1.656203911913204e+24
3430000.0,1.6562526297544975e+24
3440000.0,1.6563041739487983e+24
3450000.0,1.6563496638413493e+24
3460000.0,1.6564002361912815e+24
3470000.0,1.656450136067521e+24
3480000.0,1.6564974059006747e+24
3490000.0,1.6565433093312177e+24
3500000.0,1.6565844843904617e+24
3510000.0,1.656628306795859e+24
3520000.0,1.6566745159289435e+24
3530000.0,1.6567196162033595e+24
3540000.0,1.656762247626399e+24
3550000.0,1.656806527127751e+24
3560000.0,1.6568486064022314e+24
3570000.0,1.6568910841088744e+24
3580000.0,1.656933476440321e+24
3590000.0,1.6569740069406138e+24
3600000.0,1.65701444875871e+24
3610000.0,1.6570521947767364e+24
3620000.0,1.657090932111009e+24
3630000.0,1.657128983558201e+24
3640000.0,1.6571667137899148e+24
3650000.0,1.657202735941674e+24
3660000.0,1.657240229176312e+24
3670000.0,1.6572749175141729e+24
3680000.0,1.6573092125848587e+24
3690000.0,1.65734539182427e+24
3700000.0,1.6573789928790452e+24
3710000.0,1.6574103186620067e+24
3720000.0,1.657442405163195e+24
3730000.0,1.6574744272771808e+24
3740000.0,1.657507903466333e+24
3750000.0,1.6575397507135805e+24
3760000.0,1.6575721790380877e+24
3770000.0,1.657602980678296e+24
3780000.0,1.6576349817530258e+24
3790000.0,1.6576661943492568e+24
3800000.0,1.6576958248313018e+24
3810000.0,1.6577254062642772e+24
3820000.0,1.6577541225963532e+24
3830000.0,1.657782739570223e+24
3840000.0,1.6578103768883737e+24
3850000.0,1.6578352357483445e+24
3860000.0,1.657863483845825e+24
3870000.0,1.6578906528866734e+24
3880000.0,1.6579167987960116e+24
3890000.0,1.6579430347119085e+24
3900000.0,1.6579672938596925e+24
3910000.0,1.6579897876182741e+24
3920000.0,1.6580139549356623e+24
3930000.0,1.6580377729210227e+24
3940000.0,1.6580626734710844e+24
3950000.0,1.6580862456735173e+24
3960000.0,1.658109755132047e+24
3970000.0,1.6581331560118784e+24
3980000.0,1.658156053538187e+24
3990000.0,1.6581755290011894e+24
4000000.0,1.658198996364092e+24
4010000.0,1.6582185171561933e+24
4020000.0,1.658241168328145e+24
4030000.0,1.6582638357652088e+24
4040000.0,1.6582845957170903e+24
4050000.0,1.6583054685209755e+24
4060000.0,1.6583258544420438e+24
4070000.0,1.6583446104895827e+24
4080000.0,1.6583653988153947e+24
4090000.0,1.6583858392389444e+24
4100000.0,1.65840608404811e+24
4110000.0,1.6584256428970827e+24
4120000.0,1.658443230291622e+24
4130000.0,1.6584629185847496e+24
4140000.0,1.658480986965528e+24
4150000.0,1.6584992007004236e+24
4160000.0,1.658517034384406e+24
4170000.0,1.6585349864402837e+24
4180000.0,1.6585516119187157e+24
4190000.0,1.6585685335129826e+24
4200000.0,1.6585834938079003e+24
4210000.0,1.6586010403430677e+24
4220000.0,1.6586166080143244e+24
4230000.0,1.6586296753568988e+24
4240000.0,1.6586454521439723e+24
4250000.0,1.6586614802095466e+24
4260000.0,1.658676651634696e+24
4270000.0,1.6586922889780148e+24
4280000.0,1.658704212792524e+24
4290000.0,1.658719982248733e+24
4300000.0,1.6587333747520915e+24
4310000.0,1.6587473229366267e+24
4320000.0,1.6587622719452478e+24
4330000.0,1.658771929022401e+24
4340000.0,1.6587834062688667e+24
4350000.0,1.6587957862920239e+24
4360000.0,1.658811071808629e+24
4370000.0,1.6588251708927827e+24
4380000.0,1.658838473071605e+24
4390000.0,1.6588503941083742e+24
4400000.0,1.6588638542433536e+24
4410000.0,1.6588765911616283e+24
4420000.0,1.6588895063801309e+24
4430000.0,1.658901528101886e+24
4440000.0,1.658913981608609e+24
4450000.0,1.6589263878428036e+24
4460000.0,1.658935823070147e+24
4470000.0,1.6589455297482655e+24
4480000.0,1.6589552578788313e+24
4490000.0,1.6589643669922743e+24
4500000.0,1.658975492525363e+24
4510000.0,1.6589881687424884e+24
4520000.0,1.6589994788658545e+24
4530000.0,1.6590099824077506e+24
4540000.0,1.659016311710439e+24
4550000.0,1.659026819641718e+24
4560000.0,1.6590384005752174e+24
4570000.0,1.6590473899857932e+24
4580000.0,1.6590582743777432e+24
4590000.0,1.6590685188853658e+24
4600000.0,1.659078414807354e+24
4610000.0,1.6590886696011054e+24
4620000.0,1.659097094131637e+24
4630000.0,1.659105463061484e+24
4640000.0,1.6591100165089724e+24
4650000.0,1.6591197364845676e+24
4660000.0,1.659130156484989e+24
4670000.0,1.659139535853838e+24
4680000.0,1.6591478724461516e+24
4690000.0,1.6591544781965285e+24
4700000.0,1.659161534608605e+24
4710000.0,1.659169731243999e+24
4720000.0,1.6591788004989312e+24
4730000.0,1.65918757471082e+24
4740000.0,1.6591944484323766e+24
4750000.0,1.659201369940278e+24
4760000.0,1.6592094108690935e+24
4770000.0,1.659214665827104e+24
4780000.0,1.6592226175247067e+24
4790000.0,1.6592308788991453e+24
4800000.0,1.6592388789778168e+24
4810000.0,1.6592462286104276e+24
4820000.0,1.659252985369392e+24
4830000.0,1.6592600850602222e+24
4840000.0,1.6592667961580116e+24
4850000.0,1.6592742122176138e+24
4860000.0,1.6592804500634455e+24
4870000.0,1.659287014735567e+24
4880000.0,1.659293051434664e+24
4890000.0,1.6592965635741807e+24
4900000.0,1.6593022932908156e+24
4910000.0,1.659309603347507e+24
4920000.0,1.6593163407182788e+24
4930000.0,1.659320479234932e+24
4940000.0,1.6593260735060103e+24
4950000.0,1.6593285221855966e+24
4960000.0,1.6593347762272209e+24
4970000.0,1.6593417053955213e+24
4980000.0,1.6593442879478633e+24
4990000.0,1.6593499213943192e+24
5000000.0,1.659351084939396e+24
5010000.0,1.6593569901272974e+24
5020000.0,1.6593637523006406e+24
5030000.0,1.659370240060508e+24
5040000.0,1.6593743245760461e+24
5050000.0,1.6593807991237366e+24
5060000.0,1.6593866611616803e+24
5070000.0,1.6593923844809203e+24
5080000.0,1.6593967702714677e+24
5090000.0,1.6594020012852644e+24
5100000.0,1.6594065937110555e+24
5110000.0,1.6594102296907426e+24
5120000.0,1.6594145494510216e+24
5130000.0,1.6594197769781867e+24
5140000.0,1.659421716568507e+24
5150000.0,1.6594239645895193e+24
5160000.0,1.659429779411718e+24
5170000.0,1.6594320507199796e+24
5180000.0,1.6594362181499728e+24
5190000.0,1.6594414146490024e+24
5200000.0,1.6594469315988778e+24
5210000.0,1.659451501240057e+24
5220000.0,1.6594560899576924e+24
5230000.0,1.6594588198282317e+24
5240000.0,1.6594598878461576e+24
5250000.0,1.6594651658266581e+24
5260000.0,1.6594669324479026e+24
5270000.0,1.6594692507537089e+24
5280000.0,1.6594725543852106e+24
5290000.0,1.6594770920645353e+24
5300000.0,1.6594773060531628e+24
5310000.0,1.6594800864897511e+24
5320000.0,1.6594851257550255e+24
5330000.0,1.6594900121960904e+24
5340000.0,1.6594904061992631e+24
5350000.0,1.6594950142678258e+24
5360000.0,1.659499139535944e+24
5370000.0,1.6595039486217377e+24
5380000.0,1.659507986550855e+24
5390000.0,1.6595128241967933e+24
5400000.0,1.6595151385835482e+24
5410000.0,1.6595181605356545e+24
5420000.0,1.6595200332617204e+24
5430000.0,1.6595239130758938e+24
5440000.0,1.659522736657752e+24
5450000.0,1.659525964757945e+24
5460000.0,1.659530485370346e+24
5470000.0,1.659534545122366e+24
5480000.0,1.6595373578062596e+24
5490000.0,1.6595407793235186e+24
5500000.0,1.659542555578725e+24
5510000.0,1.659541591627486e+24
5520000.0,1.6595427484328734e+24
5530000.0,1.6595469740487843e+24
5540000.0,1.6595509962154665e+24
5550000.0,1.6595519168778134e+24
5560000.0,1.6595558348890027e+24
5570000.0,1.6595576887455757e+24
5580000.0,1.6595594515449577e+24
5590000.0,1.6595632506084879e+24
5600000.0,1.6595670770659728e+24
5610000.0,1.6595674615799527e+24
5620000.0,1.659570493170842e+24
5630000.0,1.6595729939307079e+24
5640000.0,1.659576413560515e+24
5650000.0,1.6595756735697564e+24
5660000.0,1.659579324382188e+24
5670000.0,1.6595810698291412e+24
5680000.0,1.6595842214764125e+24
5690000.0,1.659585715127883e+24
5700000.0,1.6595845637599517e+24
5710000.0,1.6595874679411264e+24
5720000.0,1.659590112013339e+24
5730000.0,1.6595926566902035e+24
5740000.0,1.6595958636056302e+24
5750000.0,1.6595982457329507e+24
5760000.0,1.6595998158326126e+24
5770000.0,1.6596024436302726e+24
5780000.0,1.6596046439520607e+24
5790000.0,1.6596012143703228e+24
5800000.0,1.6596015768278525e+24
5810000.0,1.6596034150025064e+24
5820000.0,1.6596052689583186e+24
5830000.0,1.6596056396632971e+24
5840000.0,1.659609348726238e+24
5850000.0,1.6596118002810056e+24
5860000.0,1.6596122395751822e+24
5870000.0,1.6596152217731836e+24
5880000.0,1.6596175484713603e+24
5890000.0,1.6596199333082796e+24
5900000.0,1.6596196825290069e+24
5910000.0,1.6596199675525025e+24
5920000.0,1.659623127786895e+24
5930000.0,1.659625410473998e+24
5940000.0,1.6596274675792165e+24
5950000.0,1.6596289267006174e+24
5960000.0,1.6596303773499094e+24
5970000.0,1.659631948976929e+24
5980000.0,1.6596293632822297e+24
5990000.0,1.6596304162346664e+24
