Time (s),Average dC (atm/m^3)
0.0,0.0
10000.0,4.714990389993852e+22
20000.0,8.362529268356222e+22
30000.0,1.1305270441162989e+23
40000.0,1.3730307765951196e+23
50000.0,1.5756882875400174e+23
60000.0,1.7468753237138316e+23
70000.0,1.8927842166943288e+23
80000.0,2.0181250880097186e+23
90000.0,2.126561256346492e+23
100000.0,2.2209736385027425e+23
110000.0,2.3036555996335498e+23
120000.0,2.376449435164163e+23
130000.0,2.440848226624805e+23
140000.0,2.49806904639932e+23
150000.0,2.5491163223240508e+23
160000.0,2.5948200474009314e+23
170000.0,2.6358736062866215e+23
180000.0,2.6728601868479592e+23
190000.0,2.706272189430649e+23
200000.0,2.7365294001953052e+23
210000.0,2.7639888279691135e+23
220000.0,2.7889588765786997e+23
230000.0,2.8117094165215804e+23
240000.0,2.83247150625003e+23
250000.0,2.85144708262071e+23
260000.0,2.868814162512363e+23
270000.0,2.8847298270647706e+23
280000.0,2.8993320590646437e+23
290000.0,2.9127443644314454e+23
300000.0,2.9250759016692644e+23
310000.0,2.9364265041820536e+23
320000.0,2.9468817179178126e+23
330000.0,2.9565180803624455e+23
340000.0,2.9654081258807596e+23
350000.0,2.9736210711801238e+23
360000.0,2.9812013319134763e+23
370000.0,2.988211689770433e+23
380000.0,2.9946963351617988e+23
390000.0,3.0006953170265082e+23
400000.0,3.006250054212903e+23
410000.0,3.0113964709085156e+23
420000.0,3.0161670585207864e+23
430000.0,3.0205922155207503e+23
440000.0,3.024692937636263e+23
450000.0,3.028498271315727e+23
460000.0,3.032032893638529e+23
470000.0,3.0353154661691596e+23
480000.0,3.03836483657313e+23
490000.0,3.041203279596003e+23
500000.0,3.043837609304634e+23
510000.0,3.0462858750168395e+23
520000.0,3.04856310509191e+23
530000.0,3.05068379173398e+23
540000.0,3.052657638586387e+23
550000.0,3.054496866382214e+23
560000.0,3.056206769141908e+23
570000.0,3.057799983677616e+23
580000.0,3.059286559644774e+23
590000.0,3.060669034654648e+23
600000.0,3.061957870826368e+23
610000.0,3.063161134430575e+23
620000.0,3.064278749326338e+23
630000.0,3.065322046056348e+23
640000.0,3.06629607301441e+23
650000.0,3.067203988565554e+23
660000.0,3.068052940604816e+23
670000.0,3.068843914488851e+23
680000.0,3.069583081303978e+23
690000.0,3.0702759082365704e+23
700000.0,3.07091983424598e+23
710000.0,3.071519549671144e+23
720000.0,3.072079495600932e+23
730000.0,3.072603594941628e+23
740000.0,3.073094608222278e+23
750000.0,3.073551476167203e+23
760000.0,3.073978580909241e+23
770000.0,3.0743784811213265e+23
780000.0,3.074751699053472e+23
790000.0,3.075105350369416e+23
800000.0,3.075430504845585e+23
810000.0,3.075734505982109e+23
820000.0,3.076018540505912e+23
830000.0,3.0762856978402735e+23
840000.0,3.076536281520763e+23
850000.0,3.076768846518493e+23
860000.0,3.076986085774858e+23
870000.0,3.077190589341831e+23
880000.0,3.077382101999152e+23
890000.0,3.077560982406229e+23
900000.0,3.0777293116225794e+23
910000.0,3.077885047516827e+23
920000.0,3.078031610460179e+23
930000.0,3.078170251555085e+23
940000.0,3.078300082326956e+23
950000.0,3.0784210221484735e+23
960000.0,3.078533860785549e+23
970000.0,3.078639705254044e+23
980000.0,3.078737502508561e+23
990000.0,3.0788295264654944e+23
1000000.0,3.078915342081429e+23
1010000.0,3.0789961443523524e+23
1020000.0,3.0790728940271524e+23
1030000.0,3.079144092178085e+23
1040000.0,3.079208715695014e+23
1050000.0,3.079269410735053e+23
1060000.0,3.079326757156205e+23
1070000.0,3.0793825062427464e+23
1080000.0,3.079434464675379e+23
1090000.0,3.079482044015661e+23
1100000.0,3.0795259743559436e+23
1110000.0,3.079567789400682e+23
1120000.0,3.079608816902127e+23
1130000.0,3.079646463416218e+23
1140000.0,3.0796809990331254e+23
1150000.0,3.079715628732965e+23
1160000.0,3.0797471568058504e+23
1170000.0,3.079775070732204e+23
1180000.0,3.0798006533949926e+23
1190000.0,3.079825734656582e+23
1200000.0,3.0798480706636214e+23
1210000.0,3.079869520079198e+23
1220000.0,3.0798891958625384e+23
1230000.0,3.079907919381708e+23
1240000.0,3.0799308545204916e+23
1250000.0,3.0799458323709655e+23
1260000.0,3.0799608664919676e+23
1270000.0,3.0799747697401524e+23
1280000.0,3.0799878053728285e+23
1290000.0,3.080000101671961e+23
1300000.0,3.080012338270953e+23
1310000.0,3.080023632635987e+23
1320000.0,3.08003571554004e+23
1330000.0,3.080046181030253e+23
1340000.0,3.080055556587297e+23
1350000.0,3.080065254848228e+23
1360000.0,3.080074466847167e+23
1370000.0,3.0800829858412564e+23
1380000.0,3.080090623952232e+23
1390000.0,3.080096951167836e+23
1400000.0,3.080102567113875e+23
1410000.0,3.0801084139198216e+23
1420000.0,3.0801126090471554e+23
1430000.0,3.080118250751248e+23
1440000.0,3.080123404483799e+23
1450000.0,3.080129763037119e+23
1460000.0,3.080133294684389e+23
1470000.0,3.08013549876797e+23
1480000.0,3.080140130784613e+23
1490000.0,3.0801447374196515e+23
1500000.0,3.080148857707064e+23
1510000.0,3.080151358362832e+23
1520000.0,3.080154429828896e+23
1530000.0,3.080161287929288e+23
1540000.0,3.0801646851816704e+23
1550000.0,3.08016651280417e+23
1560000.0,3.0801680628508336e+23
1570000.0,3.0801705559234644e+23
1580000.0,3.080172523223146e+23
1590000.0,3.080175207260913e+23
1600000.0,3.0801764875547984e+23
1610000.0,3.080177271466452e+23
1620000.0,3.080178228775608e+23
1630000.0,3.080179627660725e+23
1640000.0,3.080181317740926e+23
1650000.0,3.080183445151095e+23
1660000.0,3.0801848609258415e+23
1670000.0,3.080186567418265e+23
1680000.0,3.0801890430332806e+23
1690000.0,3.080190383206854e+23
1700000.0,3.080189972057929e+23
1710000.0,3.080191483786355e+23
1720000.0,3.080191603360689e+23
1730000.0,3.0801966865480476e+23
1740000.0,3.08019514341405e+23
1750000.0,3.080194137675295e+23
1760000.0,3.080194079071882e+23
1770000.0,3.0801945496344926e+23
1780000.0,3.080192764759894e+23
1790000.0,3.080193224965593e+23
1800000.0,3.0801937425838304e+23
1810000.0,3.0801948535628094e+23
1820000.0,3.0801955418363236e+23
1830000.0,3.080197206159471e+23
1840000.0,3.080197352287116e+23
1850000.0,3.08019733122508e+23
1860000.0,3.0801974275045715e+23
1870000.0,3.080196703748793e+23
1880000.0,3.0801960477858715e+23
1890000.0,3.0801975876906254e+23
1900000.0,3.0801983792888234e+23
1910000.0,3.080197313539993e+23
1920000.0,3.0801975753589985e+23
1930000.0,3.080197395298405e+23
1940000.0,3.080200317141192e+23
1950000.0,3.0801988137105336e+23
1960000.0,3.080197886424614e+23
1970000.0,3.0801965951143806e+23
1980000.0,3.080196186285483e+23
1990000.0,3.0801994198842266e+23
2000000.0,3.080197859416857e+23
2010000.0,3.080197050656781e+23
2020000.0,3.0801967970917105e+23
2030000.0,3.0801992635265274e+23
2040000.0,3.080196948745507e+23
2050000.0,3.080195160891379e+23
2060000.0,3.08019798621132e+23
2070000.0,3.0801958260813676e+23
2080000.0,3.0801966618380075e+23
2090000.0,3.080195583596365e+23
2100000.0,3.080199559951872e+23
2110000.0,3.0801984209754754e+23
2120000.0,3.0801975587478367e+23
2130000.0,3.080196918258533e+23
2140000.0,3.080196325082713e+23
2150000.0,3.0801988686854815e+23
2160000.0,3.080198459141831e+23
2170000.0,3.080196929536617e+23
2180000.0,3.080196483271746e+23
2190000.0,3.080197453870056e+23
2200000.0,3.080197801418016e+23
2210000.0,3.08019708536593e+23
2220000.0,3.0801978561936385e+23
2230000.0,3.08019621980837e+23
2240000.0,3.0801971301121634e+23
2250000.0,3.08020423435577e+23
2260000.0,3.08020154475987e+23
2270000.0,3.080198876006663e+23
2280000.0,3.080198873554336e+23
2290000.0,3.0801990373786536e+23
2300000.0,3.080198146483006e+23
2310000.0,3.08019778214858e+23
2320000.0,3.0801968601347316e+23
2330000.0,3.080197246538282e+23
2340000.0,3.0802066061998604e+23
2350000.0,3.080203348531206e+23
2360000.0,3.080201611278212e+23
2370000.0,3.0802027696624036e+23
2380000.0,3.080200523770366e+23
2390000.0,3.08019894994642e+23
2400000.0,3.080198597224364e+23
2410000.0,3.0801970840334686e+23
2420000.0,3.0801991527245705e+23
2430000.0,3.080197892238962e+23
2440000.0,3.080205063373427e+23
2450000.0,3.080202738242018e+23
2460000.0,3.0802017444680365e+23
2470000.0,3.0802025881725684e+23
2480000.0,3.080202295950109e+23
2490000.0,3.0802014879735096e+23
2500000.0,3.08020058590497e+23
2510000.0,3.080200092299595e+23
2520000.0,3.080199562211243e+23
2530000.0,3.080199413683184e+23
2540000.0,3.0801990049631356e+23
2550000.0,3.0802000547944646e+23
2560000.0,3.0802001735581527e+23
2570000.0,3.0802001250816493e+23
2580000.0,3.0801993868130784e+23
2590000.0,3.0802043397485013e+23
2600000.0,3.080203368909425e+23
2610000.0,3.080201198926746e+23
2620000.0,3.0802020472546094e+23
2630000.0,3.0802018218307255e+23
2640000.0,3.0802007439335556e+23
2650000.0,3.080201680572641e+23
2660000.0,3.0802015914361116e+23
2670000.0,3.0802018091167835e+23
2680000.0,3.080202970755404e+23
2690000.0,3.0802030600240495e+23
2700000.0,3.0802040433039416e+23
2710000.0,3.080205201970447e+23
2720000.0,3.0802040044002976e+23
2730000.0,3.0802028317788956e+23
2740000.0,3.080202604248692e+23
2750000.0,3.080202675439113e+23
2760000.0,3.0802020447607125e+23
2770000.0,3.080201344224262e+23
2780000.0,3.0802004214004055e+23
2790000.0,3.080200579861454e+23
2800000.0,3.0802011578284266e+23
2810000.0,3.0802013243015294e+23
2820000.0,3.080200561925635e+23
2830000.0,3.0801999659455606e+23
2840000.0,3.080199234104949e+23
2850000.0,3.080199670363096e+23
2860000.0,3.0802007996653586e+23
2870000.0,3.080201074968294e+23
2880000.0,3.080201042634143e+23
2890000.0,3.080201139231457e+23
2900000.0,3.080200936354357e+23
2910000.0,3.08020056085177e+23
2920000.0,3.080200974140354e+23
2930000.0,3.080202320694337e+23
2940000.0,3.080201181421234e+23
2950000.0,3.080200678305656e+23
2960000.0,3.08020038986965e+23
2970000.0,3.080200453864604e+23
2980000.0,3.0802003268560145e+23
2990000.0,3.080199697522045e+23
3000000.0,3.080200065928728e+23
3010000.0,3.080199727818393e+23
3020000.0,3.080198479997926e+23
3030000.0,3.080198986225555e+23
3040000.0,3.0801985402145814e+23
3050000.0,3.0801994320717426e+23
3060000.0,3.080203864948632e+23
3070000.0,3.080201625395444e+23
3080000.0,3.0802031938315176e+23
3090000.0,3.080203629685311e+23
3100000.0,3.080202402542021e+23
3110000.0,3.0802009993110494e+23
3120000.0,3.080200150970531e+23
3130000.0,3.080198231325061e+23
3140000.0,3.080198764289897e+23
3150000.0,3.0801985116580935e+23
3160000.0,3.0802035276668815e+23
3170000.0,3.080203428377043e+23
3180000.0,3.080200694118439e+23
3190000.0,3.080199168037086e+23
3200000.0,3.080198439252584e+23
3210000.0,3.0802007421847087e+23
3220000.0,3.080201151446432e+23
3230000.0,3.080200784299364e+23
3240000.0,3.080201544316548e+23
3250000.0,3.080200341324157e+23
3260000.0,3.080202978308738e+23
3270000.0,3.080202857909231e+23
3280000.0,3.080202057910452e+23
3290000.0,3.080202168790069e+23
3300000.0,3.080202793337003e+23
3310000.0,3.080202717362796e+23
3320000.0,3.08020934803434e+23
3330000.0,3.080207032546301e+23
3340000.0,3.0802082150399896e+23
3350000.0,3.0802077923968715e+23
3360000.0,3.080204870268441e+23
3370000.0,3.080204768983029e+23
3380000.0,3.080203642698553e+23
3390000.0,3.080203813600019e+23
3400000.0,3.080202352848148e+23
3410000.0,3.0802014638354465e+23
3420000.0,3.0802014435395074e+23
3430000.0,3.0802031650381736e+23
3440000.0,3.080204303297906e+23
3450000.0,3.080203290629292e+23
3460000.0,3.080203405886339e+23
3470000.0,3.080203946770794e+23
3480000.0,3.080202736688577e+23
3490000.0,3.0802023041266625e+23
3500000.0,3.080201107579697e+23
3510000.0,3.0802002030587274e+23
3520000.0,3.0801997405004945e+23
3530000.0,3.08019987490952e+23
3540000.0,3.080199897615501e+23
3550000.0,3.0801987801016374e+23
3560000.0,3.0801979498291916e+23
3570000.0,3.080197190181352e+23
3580000.0,3.080196825605173e+23
3590000.0,3.080199597034551e+23
3600000.0,3.080199323524704e+23
3610000.0,3.0801983421184115e+23
3620000.0,3.0801983909183976e+23
3630000.0,3.0801983396806585e+23
3640000.0,3.08020032220243e+23
3650000.0,3.0802004011768755e+23
3660000.0,3.080200259869291e+23
3670000.0,3.080200609087376e+23
3680000.0,3.0802005735820255e+23
3690000.0,3.0801992859606716e+23
3700000.0,3.080204342668367e+23
3710000.0,3.0801995037213265e+23
3720000.0,3.080197209836457e+23
3730000.0,3.080197499069685e+23
3740000.0,3.0801966451574545e+23
3750000.0,3.080197940059993e+23
3760000.0,3.080197897079089e+23
3770000.0,3.0801972900712484e+23
3780000.0,3.08019744302393e+23
3790000.0,3.0801995992883116e+23
3800000.0,3.080196480503488e+23
3810000.0,3.0801954498269626e+23
3820000.0,3.0801944799311577e+23
3830000.0,3.0801986852029e+23
3840000.0,3.0801985926765486e+23
3850000.0,3.08019832473514e+23
3860000.0,3.080201868361116e+23
3870000.0,3.0802005366010196e+23
3880000.0,3.08019966304705e+23
3890000.0,3.0801977372529206e+23
3900000.0,3.080197403649393e+23
3910000.0,3.0801959581108816e+23
3920000.0,3.080196987374615e+23
3930000.0,3.0801963191496886e+23
3940000.0,3.080196040467079e+23
3950000.0,3.080195924629908e+23
3960000.0,3.0801964724085884e+23
3970000.0,3.080195468545559e+23
3980000.0,3.080195743250381e+23
3990000.0,3.080196811388741e+23
4000000.0,3.080198667492734e+23
4010000.0,3.080199374011928e+23
4020000.0,3.0801988666043726e+23
4030000.0,3.0801980684755465e+23
4040000.0,3.08019769660087e+23
4050000.0,3.0801984772453485e+23
4060000.0,3.080198717298844e+23
4070000.0,3.0802023527028144e+23
4080000.0,3.080202784493623e+23
4090000.0,3.080203058679978e+23
4100000.0,3.080201863778804e+23
4110000.0,3.080201448863083e+23
4120000.0,3.08020382627257e+23
4130000.0,3.08020242373527e+23
4140000.0,3.0802023622691904e+23
4150000.0,3.080201024188146e+23
4160000.0,3.0801995868488656e+23
4170000.0,3.0802002907591706e+23
4180000.0,3.080202684001121e+23
4190000.0,3.08020213581157e+23
4200000.0,3.0802007618392716e+23
4210000.0,3.08020030602933e+23
4220000.0,3.0802006003063803e+23
4230000.0,3.080202193891568e+23
4240000.0,3.0802023380672584e+23
4250000.0,3.080201947229495e+23
4260000.0,3.080200227642756e+23
4270000.0,3.080199135476545e+23
4280000.0,3.0801997808341875e+23
4290000.0,3.080201038263345e+23
4300000.0,3.0802004618723735e+23
4310000.0,3.08020164054863e+23
4320000.0,3.0802014949972864e+23
4330000.0,3.0802023960637265e+23
4340000.0,3.0802028739636785e+23
4350000.0,3.080202654427603e+23
4360000.0,3.080202099771141e+23
4370000.0,3.080202133697112e+23
4380000.0,3.0802010638927184e+23
4390000.0,3.0802049229871797e+23
4400000.0,3.0802032331001e+23
4410000.0,3.080203234735475e+23
4420000.0,3.080202476055236e+23
4430000.0,3.080201551074113e+23
4440000.0,3.080200937124068e+23
4450000.0,3.080202786557716e+23
4460000.0,3.080202669873249e+23
4470000.0,3.080201467082187e+23
4480000.0,3.080202675721788e+23
4490000.0,3.080201524881351e+23
4500000.0,3.0802008129096606e+23
4510000.0,3.080199198583121e+23
4520000.0,3.0802008321761914e+23
4530000.0,3.0802027969367056e+23
4540000.0,3.080201878262688e+23
4550000.0,3.0802006498818685e+23
4560000.0,3.080202238020624e+23
4570000.0,3.0802007535809225e+23
4580000.0,3.0801999298986296e+23
4590000.0,3.0801980389964573e+23
4600000.0,3.080198178277596e+23
4610000.0,3.080199159724776e+23
4620000.0,3.080199996942791e+23
4630000.0,3.0801993667038395e+23
4640000.0,3.080200185266545e+23
4650000.0,3.080200352794375e+23
4660000.0,3.080200580627295e+23
4670000.0,3.080198924483436e+23
4680000.0,3.080200231232787e+23
4690000.0,3.080200538205203e+23
4700000.0,3.0801999919409247e+23
4710000.0,3.0802006809265484e+23
4720000.0,3.080200682291129e+23
4730000.0,3.080200624840318e+23
4740000.0,3.0802004858190174e+23
4750000.0,3.0802012203908335e+23
4760000.0,3.080202426877277e+23
4770000.0,3.0802019647141634e+23
4780000.0,3.0802022989179906e+23
4790000.0,3.0802020334189856e+23
4800000.0,3.080203617951569e+23
4810000.0,3.0802046055504344e+23
4820000.0,3.080204440344275e+23
4830000.0,3.080202701094561e+23
4840000.0,3.080202310289357e+23
4850000.0,3.080202488742145e+23
4860000.0,3.0802032661131476e+23
4870000.0,3.0802035370730364e+23
4880000.0,3.0802029277572695e+23
4890000.0,3.08020522282534e+23
4900000.0,3.080202716843741e+23
4910000.0,3.0802033348058365e+23
4920000.0,3.080202127991592e+23
4930000.0,3.080200822988287e+23
4940000.0,3.080202957314721e+23
4950000.0,3.08020166421144e+23
4960000.0,3.080201090421848e+23
4970000.0,3.080200092300437e+23
4980000.0,3.080199385122054e+23
4990000.0,3.080198787792873e+23
5000000.0,3.080199113707266e+23
5010000.0,3.08019921736319e+23
5020000.0,3.080199536676859e+23
5030000.0,3.08019995464533e+23
5040000.0,3.080201420817852e+23
5050000.0,3.0802012743848665e+23
5060000.0,3.08020420045889e+23
5070000.0,3.08020538526036e+23
5080000.0,3.080205186718124e+23
5090000.0,3.080203438536368e+23
5100000.0,3.080201209472947e+23
5110000.0,3.0802006103668366e+23
5120000.0,3.080200416094204e+23
5130000.0,3.080201394158034e+23
5140000.0,3.0802012775461685e+23
5150000.0,3.080209104685345e+23
5160000.0,3.080205764285327e+23
5170000.0,3.080203129826617e+23
5180000.0,3.080206022867779e+23
5190000.0,3.08020516497186e+23
5200000.0,3.080203641555634e+23
5210000.0,3.080202420059649e+23
5220000.0,3.0802012095390684e+23
5230000.0,3.080202166118943e+23
5240000.0,3.0802036678094974e+23
5250000.0,3.080203351536868e+23
5260000.0,3.080202578064747e+23
5270000.0,3.080202432668471e+23
5280000.0,3.080202028188852e+23
5290000.0,3.080207445052011e+23
5300000.0,3.0802069803908404e+23
5310000.0,3.0802053929387485e+23
5320000.0,3.080203478463761e+23
5330000.0,3.0802021188413714e+23
5340000.0,3.080201324210634e+23
5350000.0,3.0802005792853065e+23
5360000.0,3.080199689196237e+23
5370000.0,3.0802026592360175e+23
5380000.0,3.080202786798232e+23
5390000.0,3.080202197252353e+23
5400000.0,3.080202494391875e+23
5410000.0,3.080201105019095e+23
5420000.0,3.0801994931452185e+23
5430000.0,3.080200808591021e+23
5440000.0,3.0801993500092916e+23
5450000.0,3.0802000021610584e+23
5460000.0,3.080199468130887e+23
5470000.0,3.0801987644998573e+23
5480000.0,3.080198811955113e+23
5490000.0,3.0801998592376296e+23
5500000.0,3.080198101436656e+23
5510000.0,3.080201126951482e+23
5520000.0,3.080202016038714e+23
5530000.0,3.080200599861454e+23
5540000.0,3.080199033736496e+23
5550000.0,3.0801983967211454e+23
5560000.0,3.080197529400619e+23
5570000.0,3.080201662191879e+23
5580000.0,3.0802012128086056e+23
5590000.0,3.080199135046694e+23
5600000.0,3.080198558381577e+23
5610000.0,3.0801987837259744e+23
5620000.0,3.080199762196492e+23
5630000.0,3.0801995749214294e+23
5640000.0,3.080202068341885e+23
5650000.0,3.0802002099987255e+23
5660000.0,3.0801996781384566e+23
5670000.0,3.0802010542464164e+23
5680000.0,3.080199661048478e+23
5690000.0,3.0801983872873585e+23
5700000.0,3.080197165829502e+23
5710000.0,3.080197750283509e+23
5720000.0,3.080198081527361e+23
5730000.0,3.080198453934607e+23
5740000.0,3.080197276085425e+23
5750000.0,3.080197007795087e+23
5760000.0,3.080199494609965e+23
5770000.0,3.080197878656267e+23
5780000.0,3.080199003283114e+23
5790000.0,3.080199884715467e+23
5800000.0,3.0801993890623434e+23
5810000.0,3.080200005330486e+23
5820000.0,3.0801993106607695e+23
5830000.0,3.0801998559315094e+23
5840000.0,3.080200038914281e+23
5850000.0,3.0802003284298153e+23
5860000.0,3.0802005178930185e+23
5870000.0,3.080200889370084e+23
5880000.0,3.0801999540251305e+23
5890000.0,3.0802002657815916e+23
5900000.0,3.080201543563134e+23
5910000.0,3.0802034141146524e+23
5920000.0,3.080202807502267e+23
5930000.0,3.0802009922297965e+23
5940000.0,3.080201296539144e+23
5950000.0,3.080201272140577e+23
5960000.0,3.080199789093667e+23
5970000.0,3.0802000201165685e+23
5980000.0,3.080200800657675e+23
5990000.0,3.0802008427751996e+23
6000000.0,3.080199904624629e+23
6010000.0,3.080201112461195e+23
6020000.0,3.0802012831353235e+23
6030000.0,3.080200207270828e+23
6040000.0,3.08019904663935e+23
6050000.0,3.080199005436483e+23
6060000.0,3.080199137648009e+23
6070000.0,3.080197592245107e+23
6080000.0,3.080200801476256e+23
6090000.0,3.080206206708613e+23
6100000.0,3.080205923358488e+23
6110000.0,3.08020484707921e+23
6120000.0,3.0802016982093295e+23
6130000.0,3.0801996034843115e+23
6140000.0,3.080198878497658e+23
6150000.0,3.080197991572954e+23
6160000.0,3.0801975246529615e+23
6170000.0,3.0801990548715286e+23
6180000.0,3.080200385151138e+23
6190000.0,3.0802003077347275e+23
6200000.0,3.080199762458102e+23
6210000.0,3.0801995475409384e+23
