Time (s),Average dC (atm/m^3)
0.0,0.0
10000.0,6.085375558954466e+22
20000.0,1.1645718070428792e+23
30000.0,1.6824166823448424e+23
40000.0,2.1693073910561725e+23
50000.0,2.6297950567309696e+23
60000.0,3.0670760339766e+23
70000.0,3.4835605577889965e+23
80000.0,3.8811551730684996e+23
90000.0,4.2614112784679524e+23
100000.0,4.625634632158042e+23
110000.0,4.974935266096649e+23
120000.0,5.310287984183015e+23
130000.0,5.632550508228328e+23
140000.0,5.942473912109638e+23
150000.0,6.240742309582429e+23
160000.0,6.527991472876705e+23
170000.0,6.804778803790216e+23
180000.0,7.071621283283562e+23
190000.0,7.329011797727042e+23
200000.0,7.577384299802306e+23
210000.0,7.81715573235304e+23
220000.0,8.048708615926708e+23
230000.0,8.272421153494321e+23
240000.0,8.488626297559726e+23
250000.0,8.697653427329758e+23
260000.0,8.899791814658776e+23
270000.0,9.095337793607046e+23
280000.0,9.284529745982541e+23
290000.0,9.467690735589258e+23
300000.0,9.64502878742333e+23
310000.0,9.816765292383678e+23
320000.0,9.983116193256237e+23
330000.0,1.0144313448565209e+24
340000.0,1.0300564439328306e+24
350000.0,1.0452045739814578e+24
360000.0,1.0598925783296118e+24
370000.0,1.0741379075410077e+24
380000.0,1.0879533111073362e+24
390000.0,1.1013643651571555e+24
400000.0,1.1143809621876003e+24
410000.0,1.1270165621928256e+24
420000.0,1.1392854161760615e+24
430000.0,1.1512005976380093e+24
440000.0,1.1627754283619584e+24
450000.0,1.1740207952887443e+24
460000.0,1.1849491071636658e+24
470000.0,1.1955695262215838e+24
480000.0,1.2058942380409904e+24
490000.0,1.2159348053363547e+24
500000.0,1.2256991252360278e+24
510000.0,1.2351975305620008e+24
520000.0,1.2444376422406922e+24
530000.0,1.2534276896320806e+24
540000.0,1.2621801071206632e+24
550000.0,1.2706995189885312e+24
560000.0,1.2789947206049034e+24
570000.0,1.287068087794177e+24
580000.0,1.2949355126728744e+24
590000.0,1.302596668407257e+24
600000.0,1.31006042092191e+24
610000.0,1.3173347700905726e+24
620000.0,1.3244232963241264e+24
630000.0,1.3313325988131234e+24
640000.0,1.3380687993310658e+24
650000.0,1.344634701359729e+24
660000.0,1.3510378995411153e+24
670000.0,1.357283623943939e+24
680000.0,1.3633754693897055e+24
690000.0,1.36931754240229e+24
700000.0,1.3751152757397104e+24
710000.0,1.3807735576381069e+24
720000.0,1.386297038574693e+24
730000.0,1.3916886797792953e+24
740000.0,1.3969517569276818e+24
750000.0,1.4020891598752969e+24
760000.0,1.407106611377122e+24
770000.0,1.4120071007657782e+24
780000.0,1.4167933570407232e+24
790000.0,1.4214689677841843e+24
800000.0,1.426035004882266e+24
810000.0,1.4304970860626305e+24
820000.0,1.4348584942056338e+24
830000.0,1.4391190809096907e+24
840000.0,1.4432810159909662e+24
850000.0,1.4473541404657994e+24
860000.0,1.4513367411912515e+24
870000.0,1.4552277534440074e+24
880000.0,1.4590334866966832e+24
890000.0,1.462756382196894e+24
900000.0,1.4663980177887624e+24
910000.0,1.4699577599006253e+24
920000.0,1.473441808865671e+24
930000.0,1.4768496033687344e+24
940000.0,1.4801848040720334e+24
950000.0,1.4834468392307796e+24
960000.0,1.4866407678286133e+24
970000.0,1.489765427014245e+24
980000.0,1.492823745684598e+24
990000.0,1.4958170827300337e+24
1000000.0,1.4987477890051124e+24
1010000.0,1.5016165951092478e+24
1020000.0,1.5044288442598618e+24
1030000.0,1.5071785939845228e+24
1040000.0,1.5098727548607342e+24
1050000.0,1.5125113111931052e+24
1060000.0,1.5150921174920298e+24
1070000.0,1.5176241407743703e+24
1080000.0,1.5201029632238124e+24
1090000.0,1.5225333288393359e+24
1100000.0,1.5249123954951514e+24
1110000.0,1.527244600389989e+24
1120000.0,1.5295303646040557e+24
1130000.0,1.531769207826853e+24
1140000.0,1.5339644726426607e+24
1150000.0,1.536114712977453e+24
1160000.0,1.5382212472041085e+24
1170000.0,1.5402882094341329e+24
1180000.0,1.5423144468876243e+24
1190000.0,1.5442987254282943e+24
1200000.0,1.546242115159805e+24
1210000.0,1.5481520193157005e+24
1220000.0,1.5500228406998124e+24
1230000.0,1.55185555045143e+24
1240000.0,1.5536557859381346e+24
1250000.0,1.555420916700611e+24
1260000.0,1.5571518414685412e+24
1270000.0,1.558848239573308e+24
1280000.0,1.5605117095454905e+24
1290000.0,1.5621463674143474e+24
1300000.0,1.5637468245062416e+24
1310000.0,1.5653189446091503e+24
1320000.0,1.5668613587975878e+24
1330000.0,1.5683734926866288e+24
1340000.0,1.5698581215230415e+24
1350000.0,1.571315400847906e+24
1360000.0,1.5727440924325266e+24
1370000.0,1.5741459194308035e+24
1380000.0,1.575521953108219e+24
1390000.0,1.5768727779300236e+24
1400000.0,1.578198027640975e+24
1410000.0,1.579493121022088e+24
1420000.0,1.580771391672859e+24
1430000.0,1.582025088938628e+24
1440000.0,1.5832544111854672e+24
1450000.0,1.5844597554159608e+24
1460000.0,1.5856457923256498e+24
1470000.0,1.5868061542028714e+24
1480000.0,1.5879504880994172e+24
1490000.0,1.589073238433996e+24
1500000.0,1.590175811692052e+24
1510000.0,1.5912575552024871e+24
1520000.0,1.5923138707759952e+24
1530000.0,1.593358030473474e+24
1540000.0,1.5943829047213512e+24
1550000.0,1.5953902367834516e+24
1560000.0,1.5963789536914006e+24
1570000.0,1.5973497670598448e+24
1580000.0,1.5983003922882862e+24
1590000.0,1.59923603795373e+24
1600000.0,1.6001543759216357e+24
1610000.0,1.6010574320413016e+24
1620000.0,1.6019447175574217e+24
1630000.0,1.6028147979822324e+24
1640000.0,1.6036685723576163e+24
1650000.0,1.6045101963643487e+24
1660000.0,1.6053351899594527e+24
1670000.0,1.6061471934596376e+24
1680000.0,1.6069439262946707e+24
1690000.0,1.6077275067443555e+24
1700000.0,1.6084969385270983e+24
1710000.0,1.6092517639108634e+24
1720000.0,1.6099961311375077e+24
1730000.0,1.6107271582641876e+24
1740000.0,1.6114427877843116e+24
1750000.0,1.6121428214105406e+24
1760000.0,1.6128341576238793e+24
1770000.0,1.6135126349165277e+24
1780000.0,1.6141829511935314e+24
1790000.0,1.6148424274018963e+24
1800000.0,1.6154893655301294e+24
1810000.0,1.6161215178680904e+24
1820000.0,1.6167423085616454e+24
1830000.0,1.6173522696956634e+24
1840000.0,1.6179564879202845e+24
1850000.0,1.6185506163451648e+24
1860000.0,1.6191343748708236e+24
1870000.0,1.6197078601232975e+24
1880000.0,1.6202703838453586e+24
1890000.0,1.6208234080739191e+24
1900000.0,1.6213654057129535e+24
1910000.0,1.6218997439607188e+24
1920000.0,1.622427008406116e+24
1930000.0,1.622942656257839e+24
1940000.0,1.6234511942184153e+24
1950000.0,1.6239458819557494e+24
1960000.0,1.624439384382929e+24
1970000.0,1.6249193326578518e+24
1980000.0,1.6253949228692148e+24
1990000.0,1.6258633016856414e+24
2000000.0,1.626322697140975e+24
2010000.0,1.6267736420885375e+24
2020000.0,1.627217525952953e+24
2030000.0,1.627652806028858e+24
2040000.0,1.6280825620382392e+24
2050000.0,1.628504553931973e+24
2060000.0,1.628917932290966e+24
2070000.0,1.6293209932708178e+24
2080000.0,1.6297233978774357e+24
2090000.0,1.6301183980162467e+24
2100000.0,1.6305072607496764e+24
2110000.0,1.6308885766591194e+24
2120000.0,1.631265078236761e+24
2130000.0,1.631634683090263e+24
2140000.0,1.6319991232782245e+24
2150000.0,1.6323576398931526e+24
2160000.0,1.632709417151409e+24
2170000.0,1.6330554606020778e+24
2180000.0,1.6333948962835513e+24
2190000.0,1.6337288332342892e+24
2200000.0,1.6340573617905296e+24
2210000.0,1.6343784768974972e+24
2220000.0,1.6346960178994832e+24
2230000.0,1.635004508917718e+24
2240000.0,1.6353145434312994e+24
2250000.0,1.6356170527215757e+24
2260000.0,1.6359153383726528e+24
2270000.0,1.6362084296553466e+24
2280000.0,1.6364973702680214e+24
2290000.0,1.6367798342441782e+24
2300000.0,1.6370564354848699e+24
2310000.0,1.637332162794801e+24
2320000.0,1.6376042326491812e+24
2330000.0,1.6378659795359805e+24
2340000.0,1.6381287224002046e+24
2350000.0,1.6383871786558997e+24
2360000.0,1.6386393257473266e+24
2370000.0,1.6388881799987434e+24
2380000.0,1.6391331250708401e+24
2390000.0,1.639377065910078e+24
2400000.0,1.6396126141823893e+24
2410000.0,1.639844942849893e+24
2420000.0,1.6400762186516587e+24
2430000.0,1.6403026677649569e+24
2440000.0,1.6405251596967143e+24
2450000.0,1.6407428351767245e+24
2460000.0,1.640957543812808e+24
2470000.0,1.641167401863538e+24
2480000.0,1.6413760523301895e+24
2490000.0,1.6415821267007184e+24
2500000.0,1.641782918338387e+24
2510000.0,1.6419804299148646e+24
2520000.0,1.6421776358645272e+24
2530000.0,1.6423703259074142e+24
2540000.0,1.6425566213394825e+24
2550000.0,1.6427427163854818e+24
2560000.0,1.6429275261357682e+24
2570000.0,1.6431098142371877e+24
2580000.0,1.6432864273297106e+24
2590000.0,1.6434620768511603e+24
2600000.0,1.643633943574106e+24
2610000.0,1.6438010916383605e+24
2620000.0,1.6439687924031323e+24
2630000.0,1.644133430475382e+24
2640000.0,1.644295341168478e+24
2650000.0,1.6444532526760573e+24
2660000.0,1.644609916099118e+24
2670000.0,1.6447641258666063e+24
2680000.0,1.6449103433408764e+24
2690000.0,1.6450613822237976e+24
2700000.0,1.6452078238323204e+24
2710000.0,1.645352170830077e+24
2720000.0,1.6454958349652453e+24
2730000.0,1.6456358808038942e+24
2740000.0,1.645774412067523e+24
2750000.0,1.6459100898356035e+24
2760000.0,1.646040365992807e+24
2770000.0,1.6461708303372803e+24
2780000.0,1.6463011789402546e+24
2790000.0,1.6464285021438258e+24
2800000.0,1.6465532958558034e+24
2810000.0,1.6466739773682223e+24
2820000.0,1.6467962719327428e+24
2830000.0,1.646915235997798e+24
2840000.0,1.6470330612555527e+24
2850000.0,1.647148274690472e+24
2860000.0,1.6472625170130887e+24
2870000.0,1.6473761487329463e+24
2880000.0,1.6474878987007608e+24
2890000.0,1.6475964447572317e+24
2900000.0,1.6477047665682493e+24
2910000.0,1.6478091080197353e+24
2920000.0,1.647912610426313e+24
2930000.0,1.6480153558540786e+24
2940000.0,1.6481159456999555e+24
2950000.0,1.6482116566745682e+24
2960000.0,1.648311403267094e+24
2970000.0,1.6484087760785417e+24
2980000.0,1.6485022675248356e+24
2990000.0,1.6485922539205432e+24
3000000.0,1.6486857228961806e+24
3010000.0,1.6487783676080988e+24
3020000.0,1.6488683565289455e+24
3030000.0,1.6489554407726808e+24
3040000.0,1.6490420628547422e+24
3050000.0,1.649126815411282e+24
3060000.0,1.6492108313307876e+24
3070000.0,1.6492888643370558e+24
3080000.0,1.649365737907804e+24
3090000.0,1.6494479782800537e+24
3100000.0,1.6495288026466947e+24
3110000.0,1.6496072276340286e+24
3120000.0,1.6496845757849668e+24
3130000.0,1.6497584676524587e+24
3140000.0,1.6498266057612112e+24
3150000.0,1.6498998734164395e+24
3160000.0,1.649974415563276e+24
3170000.0,1.6500470424230332e+24
3180000.0,1.6501150761327344e+24
3190000.0,1.6501833120718846e+24
3200000.0,1.650250457872761e+24
3210000.0,1.6503177966573331e+24
3220000.0,1.6503828515469583e+24
3230000.0,1.650444980811352e+24
3240000.0,1.650507962093351e+24
3250000.0,1.65057253993528e+24
3260000.0,1.650635388560469e+24
3270000.0,1.6506907089877184e+24
3280000.0,1.650751977055187e+24
3290000.0,1.6508115296829874e+24
3300000.0,1.6508688377122704e+24
3310000.0,1.6509277664736605e+24
3320000.0,1.650983582397878e+24
3330000.0,1.6510381995113843e+24
3340000.0,1.6510882380134422e+24
3350000.0,1.6511410143135277e+24
3360000.0,1.6511941222891954e+24
3370000.0,1.6512476176144283e+24
3380000.0,1.6512987526312342e+24
3390000.0,1.6513472159705417e+24
3400000.0,1.6513989130106264e+24
3410000.0,1.6514490896583234e+24
3420000.0,1.6514958354410362e+24
3430000.0,1.6515390106639396e+24
3440000.0,1.651587109142088e+24
3450000.0,1.6516354375379807e+24
3460000.0,1.6516796391686096e+24
3470000.0,1.651725191983789e+24
3480000.0,1.6517643707777202e+24
3490000.0,1.6518101317972803e+24
3500000.0,1.651854192794598e+24
3510000.0,1.6518963662121445e+24
3520000.0,1.6519377173074354e+24
3530000.0,1.651977842874204e+24
3540000.0,1.6520202186472518e+24
3550000.0,1.6520599929430612e+24
3560000.0,1.6520996601396684e+24
3570000.0,1.6521376213892863e+24
3580000.0,1.6521762480356162e+24
3590000.0,1.6522088885145357e+24
3600000.0,1.6522471527725126e+24
3610000.0,1.6522849146457032e+24
3620000.0,1.6523179664829724e+24
3630000.0,1.6523533892610346e+24
3640000.0,1.6523837547966676e+24
3650000.0,1.6524186184935504e+24
3660000.0,1.652453210343304e+24
3670000.0,1.6524877601640377e+24
3680000.0,1.6525218909105824e+24
3690000.0,1.6525541344086546e+24
3700000.0,1.6525859918822902e+24
3710000.0,1.6526160040755346e+24
3720000.0,1.6526473740602196e+24
3730000.0,1.6526736325228635e+24
3740000.0,1.652704983784202e+24
3750000.0,1.6527357015230967e+24
3760000.0,1.6527629679962698e+24
3770000.0,1.6527927336318131e+24
3780000.0,1.6528217565938874e+24
3790000.0,1.6528503140565533e+24
3800000.0,1.6528784405993034e+24
3810000.0,1.652905590775617e+24
3820000.0,1.6529313700423676e+24
3830000.0,1.6529531946954054e+24
3840000.0,1.6529795651732738e+24
3850000.0,1.6530004174451875e+24
3860000.0,1.6530275009298353e+24
3870000.0,1.6530513801984366e+24
3880000.0,1.6530752864845147e+24
3890000.0,1.6530994337478558e+24
3900000.0,1.653121746193764e+24
3910000.0,1.6531461969401504e+24
3920000.0,1.6531703535288187e+24
3930000.0,1.6531933604991768e+24
3940000.0,1.6532160128886316e+24
3950000.0,1.6532355893557443e+24
3960000.0,1.6532545789326544e+24
3970000.0,1.6532777304154504e+24
3980000.0,1.6532990560987916e+24
3990000.0,1.6533185254202968e+24
4000000.0,1.6533395899683448e+24
4010000.0,1.6533584873853958e+24
4020000.0,1.6533780209427782e+24
4030000.0,1.65339913066653e+24
4040000.0,1.653415257564229e+24
4050000.0,1.6534364970425176e+24
4060000.0,1.6534553839046094e+24
4070000.0,1.6534732584315477e+24
4080000.0,1.6534912141949846e+24
4090000.0,1.6535066588810535e+24
4100000.0,1.6535252952430937e+24
4110000.0,1.6535429021732186e+24
4120000.0,1.6535608538696068e+24
4130000.0,1.6535777448135595e+24
4140000.0,1.6535936869634104e+24
4150000.0,1.6536102041179936e+24
4160000.0,1.6536265773344128e+24
4170000.0,1.6536410231744788e+24
4180000.0,1.653654378213449e+24
4190000.0,1.6536698299623407e+24
4200000.0,1.6536852738190015e+24
4210000.0,1.6536954867347556e+24
4220000.0,1.6537060866522937e+24
4230000.0,1.6537235623594765e+24
4240000.0,1.6537395886303031e+24
4250000.0,1.6537550247671926e+24
4260000.0,1.6537641859232105e+24
4270000.0,1.6537789812447608e+24
4280000.0,1.6537939128919977e+24
4290000.0,1.6538084876242465e+24
4300000.0,1.6538212440978184e+24
4310000.0,1.6538314228394573e+24
4320000.0,1.653844742153265e+24
4330000.0,1.6538581535101334e+24
4340000.0,1.653870907062559e+24
4350000.0,1.653883693547459e+24
4360000.0,1.653894195333353e+24
4370000.0,1.6539061307520578e+24
4380000.0,1.653919047183445e+24
4390000.0,1.6539305864532838e+24
4400000.0,1.6539420256978695e+24
4410000.0,1.653950668901711e+24
4420000.0,1.6539616696876547e+24
4430000.0,1.6539719893857832e+24
4440000.0,1.6539821879357495e+24
4450000.0,1.6539936381013534e+24
4460000.0,1.654002457876769e+24
4470000.0,1.654012900273921e+24
4480000.0,1.6540248191231133e+24
4490000.0,1.654029476295326e+24
4500000.0,1.6540397443313664e+24
4510000.0,1.654050219355978e+24
4520000.0,1.6540609271687704e+24
4530000.0,1.6540703470182934e+24
4540000.0,1.6540815836432687e+24
4550000.0,1.6540890439235308e+24
4560000.0,1.6540962935318067e+24
4570000.0,1.6541044136239162e+24
4580000.0,1.6541136618651596e+24
4590000.0,1.654116837492012e+24
4600000.0,1.654126717304025e+24
4610000.0,1.6541365496968615e+24
4620000.0,1.654145935880955e+24
4630000.0,1.6541538029526428e+24
4640000.0,1.6541619665908086e+24
4650000.0,1.6541688025742168e+24
4660000.0,1.654175406890604e+24
4670000.0,1.6541834981014997e+24
4680000.0,1.6541914559475493e+24
4690000.0,1.654200531858374e+24
4700000.0,1.6542092594842598e+24
4710000.0,1.6542158630922162e+24
4720000.0,1.6542207999251633e+24
4730000.0,1.6542292234851898e+24
4740000.0,1.6542367059667273e+24
4750000.0,1.6542421404727518e+24
4760000.0,1.6542492001654935e+24
4770000.0,1.6542560941566498e+24
4780000.0,1.6542634613642876e+24
4790000.0,1.6542697401285068e+24
4800000.0,1.6542704348118637e+24
4810000.0,1.654279722213652e+24
4820000.0,1.6542843571382014e+24
4830000.0,1.654291452853377e+24
4840000.0,1.6542963265378835e+24
4850000.0,1.6543036312109712e+24
4860000.0,1.6543103593776567e+24
4870000.0,1.6543153951801255e+24
4880000.0,1.6543149580735793e+24
4890000.0,1.654318905825123e+24
4900000.0,1.6543262613789916e+24
4910000.0,1.654333057053478e+24
4920000.0,1.654338995614414e+24
4930000.0,1.654340480611382e+24
4940000.0,1.6543482427282045e+24
4950000.0,1.6543554134845276e+24
4960000.0,1.654361834664441e+24
4970000.0,1.654364383673137e+24
4980000.0,1.6543640187887704e+24
4990000.0,1.654366827242419e+24
5000000.0,1.6543751960612112e+24
5010000.0,1.654380087261759e+24
5020000.0,1.654386202705021e+24
5030000.0,1.6543860673817946e+24
5040000.0,1.6543897880380642e+24
5050000.0,1.6543964805003575e+24
5060000.0,1.6544019721286608e+24
5070000.0,1.6544037522654176e+24
5080000.0,1.6544079154913835e+24
5090000.0,1.6544132957639977e+24
5100000.0,1.6544192025003023e+24
5110000.0,1.6544247745539542e+24
5120000.0,1.6544279766501567e+24
5130000.0,1.6544326421336758e+24
5140000.0,1.6544363827319705e+24
5150000.0,1.6544413501319978e+24
5160000.0,1.6544414047257936e+24
5170000.0,1.6544465990954292e+24
5180000.0,1.6544513622076283e+24
5190000.0,1.6544550640114801e+24
5200000.0,1.6544568341735031e+24
5210000.0,1.6544619351952213e+24
5220000.0,1.6544655622816486e+24
5230000.0,1.6544675688974025e+24
5240000.0,1.6544688970417096e+24
5250000.0,1.6544724822984697e+24
5260000.0,1.6544763189109661e+24
5270000.0,1.654479678814553e+24
5280000.0,1.654484359372757e+24
5290000.0,1.6544870222654657e+24
5300000.0,1.654488178815081e+24
5310000.0,1.654488327454898e+24
5320000.0,1.6544932738416066e+24
5330000.0,1.6544964442966235e+24
5340000.0,1.6544972797143286e+24
5350000.0,1.6545007823764415e+24
5360000.0,1.6545020034982362e+24
5370000.0,1.6545061730406698e+24
5380000.0,1.6545084417268416e+24
5390000.0,1.6545110774828542e+24
5400000.0,1.6545113668485663e+24
5410000.0,1.6545093576988284e+24
5420000.0,1.654511812290563e+24
5430000.0,1.6545140995447434e+24
5440000.0,1.6545180169454203e+24
5450000.0,1.6545219198231115e+24
5460000.0,1.6545207306099812e+24
5470000.0,1.654526149926105e+24
5480000.0,1.6545305074370105e+24
5490000.0,1.6545340805873249e+24
5500000.0,1.654537318719862e+24
5510000.0,1.654540738827302e+24
5520000.0,1.6545410693552348e+24
5530000.0,1.6545437996996335e+24
5540000.0,1.6545459817135706e+24
5550000.0,1.6545471605604054e+24
5560000.0,1.6545494468553139e+24
5570000.0,1.6545525915415075e+24
5580000.0,1.6545551230042185e+24
5590000.0,1.6545561085815464e+24
5600000.0,1.654559207505154e+24
5610000.0,1.6545601024171323e+24
5620000.0,1.6545606105515397e+24
5630000.0,1.654564010543436e+24
5640000.0,1.654564130863741e+24
5650000.0,1.6545673877621078e+24
5660000.0,1.6545700235849284e+24
5670000.0,1.6545717973183745e+24
5680000.0,1.654574575589844e+24
5690000.0,1.654574517990596e+24
5700000.0,1.6545750816524196e+24
5710000.0,1.65457984062883e+24
5720000.0,1.654581125759441e+24
5730000.0,1.6545815401065465e+24
5740000.0,1.6545835666921675e+24
5750000.0,1.6545862605984816e+24
5760000.0,1.6545885564897982e+24
5770000.0,1.6545899634929137e+24
5780000.0,1.6545913143634037e+24
5790000.0,1.6545910774324396e+24
5800000.0,1.6545929454263592e+24
5810000.0,1.6545942924322594e+24
5820000.0,1.6545964906648657e+24
5830000.0,1.6545990186900622e+24
5840000.0,1.6546012460328981e+24
5850000.0,1.6546023107238508e+24
5860000.0,1.6546030675237167e+24
5870000.0,1.6546047810863342e+24
5880000.0,1.6546063979893642e+24
5890000.0,1.654609301390499e+24
5900000.0,1.654609143357075e+24
5910000.0,1.6546104105781453e+24
5920000.0,1.6546092632390534e+24
5930000.0,1.6546124553032093e+24
5940000.0,1.6546148402026212e+24
5950000.0,1.654617047431196e+24
5960000.0,1.654619383797594e+24
5970000.0,1.654620610642312e+24
5980000.0,1.6546213173595963e+24
5990000.0,1.6546225466145448e+24
6000000.0,1.654622461277113e+24
6010000.0,1.6546231339700977e+24
6020000.0,1.654625096182883e+24
6030000.0,1.6546255965376785e+24
6040000.0,1.6546264425451307e+24
6050000.0,1.6546289459365807e+24
6060000.0,1.6546245597090844e+24
6070000.0,1.654625502756835e+24
6080000.0,1.654627980666147e+24
6090000.0,1.654627248977515e+24
6100000.0,1.654629152536769e+24
6110000.0,1.6546308569989535e+24
6120000.0,1.6546324957335988e+24
6130000.0,1.65463093992304e+24
